# Lorentzian folded, width=30 cm^-1
# [cm^-1] [(D/Å)^2 amu^-1]
200.000      8.38984e-05      9.98501e-01 
203.000      8.48792e-05      9.98484e-01 
206.000      8.58872e-05      9.98466e-01 
209.000      8.69228e-05      9.98447e-01 
212.000      8.79864e-05      9.98428e-01 
215.000      8.90786e-05      9.98409e-01 
218.000      9.02000e-05      9.98389e-01 
221.000      9.13511e-05      9.98368e-01 
224.000      9.25326e-05      9.98347e-01 
227.000      9.37452e-05      9.98325e-01 
230.000      9.49895e-05      9.98303e-01 
233.000      9.62665e-05      9.98280e-01 
236.000      9.75768e-05      9.98257e-01 
239.000      9.89215e-05      9.98233e-01 
242.000      1.00301e-04      9.98208e-01 
245.000      1.01717e-04      9.98183e-01 
248.000      1.03170e-04      9.98157e-01 
251.000      1.04662e-04      9.98130e-01 
254.000      1.06193e-04      9.98103e-01 
257.000      1.07764e-04      9.98075e-01 
260.000      1.09378e-04      9.98046e-01 
263.000      1.11034e-04      9.98016e-01 
266.000      1.12735e-04      9.97986e-01 
269.000      1.14482e-04      9.97955e-01 
272.000      1.16277e-04      9.97923e-01 
275.000      1.18120e-04      9.97890e-01 
278.000      1.20015e-04      9.97856e-01 
281.000      1.21962e-04      9.97821e-01 
284.000      1.23964e-04      9.97785e-01 
287.000      1.26022e-04      9.97749e-01 
290.000      1.28139e-04      9.97711e-01 
293.000      1.30317e-04      9.97672e-01 
296.000      1.32557e-04      9.97632e-01 
299.000      1.34863e-04      9.97591e-01 
302.000      1.37237e-04      9.97548e-01 
305.000      1.39682e-04      9.97505e-01 
308.000      1.42200e-04      9.97460e-01 
311.000      1.44795e-04      9.97413e-01 
314.000      1.47469e-04      9.97365e-01 
317.000      1.50227e-04      9.97316e-01 
320.000      1.53070e-04      9.97265e-01 
323.000      1.56005e-04      9.97213e-01 
326.000      1.59033e-04      9.97159e-01 
329.000      1.62160e-04      9.97103e-01 
332.000      1.65389e-04      9.97045e-01 
335.000      1.68727e-04      9.96986e-01 
338.000      1.72176e-04      9.96924e-01 
341.000      1.75744e-04      9.96860e-01 
344.000      1.79435e-04      9.96794e-01 
347.000      1.83255e-04      9.96726e-01 
350.000      1.87211e-04      9.96655e-01 
353.000      1.91310e-04      9.96582e-01 
356.000      1.95559e-04      9.96506e-01 
359.000      1.99966e-04      9.96428e-01 
362.000      2.04538e-04      9.96346e-01 
365.000      2.09285e-04      9.96261e-01 
368.000      2.14217e-04      9.96173e-01 
371.000      2.19344e-04      9.96081e-01 
374.000      2.24675e-04      9.95986e-01 
377.000      2.30225e-04      9.95887e-01 
380.000      2.36004e-04      9.95784e-01 
383.000      2.42027e-04      9.95676e-01 
386.000      2.48308e-04      9.95564e-01 
389.000      2.54864e-04      9.95447e-01 
392.000      2.61712e-04      9.95324e-01 
395.000      2.68869e-04      9.95197e-01 
398.000      2.76358e-04      9.95063e-01 
401.000      2.84199e-04      9.94923e-01 
404.000      2.92416e-04      9.94776e-01 
407.000      3.01037e-04      9.94622e-01 
410.000      3.10089e-04      9.94460e-01 
413.000      3.19604e-04      9.94290e-01 
416.000      3.29615e-04      9.94111e-01 
419.000      3.40162e-04      9.93923e-01 
422.000      3.51285e-04      9.93724e-01 
425.000      3.63030e-04      9.93514e-01 
428.000      3.75447e-04      9.93293e-01 
431.000      3.88593e-04      9.93058e-01 
434.000      4.02530e-04      9.92809e-01 
437.000      4.17328e-04      9.92544e-01 
440.000      4.33063e-04      9.92263e-01 
443.000      4.49822e-04      9.91964e-01 
446.000      4.67703e-04      9.91644e-01 
449.000      4.86815e-04      9.91303e-01 
452.000      5.07281e-04      9.90937e-01 
455.000      5.29242e-04      9.90545e-01 
458.000      5.52856e-04      9.90123e-01 
461.000      5.78305e-04      9.89668e-01 
464.000      6.05797e-04      9.89177e-01 
467.000      6.35569e-04      9.88645e-01 
470.000      6.67898e-04      9.88068e-01 
473.000      7.03102e-04      9.87439e-01 
476.000      7.41553e-04      9.86752e-01 
479.000      7.83685e-04      9.85999e-01 
482.000      8.30009e-04      9.85172e-01 
485.000      8.81128e-04      9.84259e-01 
488.000      9.37760e-04      9.83247e-01 
491.000      1.00076e-03      9.82121e-01 
494.000      1.07116e-03      9.80863e-01 
497.000      1.15022e-03      9.79451e-01 
500.000      1.23944e-03      9.77857e-01 
503.000      1.34071e-03      9.76048e-01 
506.000      1.45634e-03      9.73982e-01 
509.000      1.58922e-03      9.71608e-01 
512.000      1.74299e-03      9.68861e-01 
515.000      1.92227e-03      9.65658e-01 
518.000      2.13298e-03      9.61894e-01 
521.000      2.38278e-03      9.57431e-01 
524.000      2.68166e-03      9.52092e-01 
527.000      3.04276e-03      9.45641e-01 
530.000      3.48344e-03      9.37768e-01 
533.000      4.02675e-03      9.28061e-01 
536.000      4.70311e-03      9.15978e-01 
539.000      5.55207e-03      9.00811e-01 
542.000      6.62296e-03      8.81680e-01 
545.000      7.97167e-03      8.57585e-01 
548.000      9.64694e-03      8.27656e-01 
551.000      1.16536e-02      7.91807e-01 
554.000      1.38788e-02      7.52054e-01 
557.000      1.59966e-02      7.14219e-01 
560.000      1.74570e-02      6.88127e-01 
563.000      1.77296e-02      6.83258e-01 
566.000      1.67087e-02      7.01497e-01 
569.000      1.48094e-02      7.35427e-01 
572.000      1.26191e-02      7.74559e-01 
575.000      1.05562e-02      8.11412e-01 
578.000      8.80267e-03      8.42739e-01 
581.000      7.38690e-03      8.68032e-01 
584.000      6.27068e-03      8.87973e-01 
587.000      5.39857e-03      9.03554e-01 
590.000      4.71838e-03      9.15705e-01 
593.000      4.18724e-03      9.25194e-01 
596.000      3.77188e-03      9.32615e-01 
599.000      3.44715e-03      9.38416e-01 
602.000      3.19423e-03      9.42935e-01 
605.000      2.99909e-03      9.46421e-01 
608.000      2.85126e-03      9.49062e-01 
611.000      2.74298e-03      9.50996e-01 
614.000      2.66852e-03      9.52326e-01 
617.000      2.62373e-03      9.53127e-01 
620.000      2.60567e-03      9.53449e-01 
623.000      2.61244e-03      9.53328e-01 
626.000      2.64297e-03      9.52783e-01 
629.000      2.69696e-03      9.51818e-01 
632.000      2.77480e-03      9.50428e-01 
635.000      2.87761e-03      9.48591e-01 
638.000      3.00714e-03      9.46277e-01 
641.000      3.16580e-03      9.43442e-01 
644.000      3.35645e-03      9.40036e-01 
647.000      3.58209e-03      9.36005e-01 
650.000      3.84554e-03      9.31299e-01 
653.000      4.14996e-03      9.25860e-01 
656.000      4.50093e-03      9.19590e-01 
659.000      4.90906e-03      9.12299e-01 
662.000      5.39046e-03      9.03699e-01 
665.000      5.96541e-03      8.93427e-01 
668.000      6.65808e-03      8.81052e-01 
671.000      7.49816e-03      8.66044e-01 
674.000      8.52371e-03      8.47722e-01 
677.000      9.78482e-03      8.25193e-01 
680.000      1.13480e-02      7.97267e-01 
683.000      1.33014e-02      7.62368e-01 
686.000      1.57610e-02      7.18427e-01 
689.000      1.88744e-02      6.62806e-01 
692.000      2.28169e-02      5.92372e-01 
695.000      2.77639e-02      5.03993e-01 
698.000      3.38058e-02      3.96054e-01 
701.000      4.07582e-02      2.71848e-01 
704.000      4.78591e-02      1.44989e-01 
707.000      5.35634e-02      4.30815e-02 
710.000      5.59749e-02      0.00000e+00 
713.000      5.40995e-02      3.35043e-02 
716.000      4.87150e-02      1.29699e-01 
719.000      4.16796e-02      2.55387e-01 
722.000      3.46312e-02      3.81309e-01 
725.000      2.84317e-02      4.92064e-01 
728.000      2.33235e-02      5.83323e-01 
731.000      1.92388e-02      6.56295e-01 
734.000      1.60069e-02      7.14033e-01 
737.000      1.34498e-02      7.59717e-01 
740.000      1.14152e-02      7.96065e-01 
743.000      9.78295e-03      8.25226e-01 
746.000      8.46100e-03      8.48843e-01 
749.000      7.37983e-03      8.68158e-01 
752.000      6.48704e-03      8.84108e-01 
755.000      5.74298e-03      8.97401e-01 
758.000      5.11743e-03      9.08576e-01 
761.000      4.58723e-03      9.18048e-01 
764.000      4.13441e-03      9.26138e-01 
767.000      3.74493e-03      9.33096e-01 
770.000      3.40774e-03      9.39120e-01 
773.000      3.11403e-03      9.44367e-01 
776.000      2.85676e-03      9.48964e-01 
779.000      2.63021e-03      9.53011e-01 
782.000      2.42973e-03      9.56592e-01 
785.000      2.25153e-03      9.59776e-01 
788.000      2.09246e-03      9.62618e-01 
791.000      1.94989e-03      9.65165e-01 
794.000      1.82164e-03      9.67456e-01 
797.000      1.70587e-03      9.69524e-01 
800.000      1.60103e-03      9.71397e-01 
803.000      1.50579e-03      9.73099e-01 
806.000      1.41904e-03      9.74649e-01 
809.000      1.33979e-03      9.76064e-01 
812.000      1.26722e-03      9.77361e-01 
815.000      1.20061e-03      9.78551e-01 
818.000      1.13932e-03      9.79646e-01 
821.000      1.08282e-03      9.80655e-01 
824.000      1.03062e-03      9.81588e-01 
827.000      9.82315e-04      9.82451e-01 
830.000      9.37526e-04      9.83251e-01 
833.000      8.95931e-04      9.83994e-01 
836.000      8.57242e-04      9.84685e-01 
839.000      8.21204e-04      9.85329e-01 
842.000      7.87589e-04      9.85930e-01 
845.000      7.56196e-04      9.86490e-01 
848.000      7.26842e-04      9.87015e-01 
851.000      6.99367e-04      9.87506e-01 
854.000      6.73624e-04      9.87966e-01 
857.000      6.49485e-04      9.88397e-01 
860.000      6.26831e-04      9.88802e-01 
863.000      6.05558e-04      9.89182e-01 
866.000      5.85571e-04      9.89539e-01 
869.000      5.66784e-04      9.89874e-01 
872.000      5.49121e-04      9.90190e-01 
875.000      5.32513e-04      9.90487e-01 
878.000      5.16899e-04      9.90766e-01 
881.000      5.02223e-04      9.91028e-01 
884.000      4.88436e-04      9.91274e-01 
887.000      4.75496e-04      9.91505e-01 
890.000      4.63363e-04      9.91722e-01 
893.000      4.52007e-04      9.91925e-01 
896.000      4.41401e-04      9.92114e-01 
899.000      4.31521e-04      9.92291e-01 
902.000      4.22352e-04      9.92455e-01 
905.000      4.13883e-04      9.92606e-01 
908.000      4.06110e-04      9.92745e-01 
911.000      3.99035e-04      9.92871e-01 
914.000      3.92669e-04      9.92985e-01 
917.000      3.87030e-04      9.93086e-01 
920.000      3.82151e-04      9.93173e-01 
923.000      3.78074e-04      9.93246e-01 
926.000      3.74864e-04      9.93303e-01 
929.000      3.72604e-04      9.93343e-01 
932.000      3.71406e-04      9.93365e-01 
935.000      3.71419e-04      9.93365e-01 
938.000      3.72831e-04      9.93339e-01 
941.000      3.75874e-04      9.93285e-01 
944.000      3.80802e-04      9.93197e-01 
947.000      3.87827e-04      9.93071e-01 
950.000      3.96958e-04      9.92908e-01 
953.000      4.07718e-04      9.92716e-01 
956.000      4.18890e-04      9.92516e-01 
959.000      4.28780e-04      9.92340e-01 
962.000      4.36359e-04      9.92204e-01 
965.000      4.42376e-04      9.92097e-01 
968.000      4.49005e-04      9.91978e-01 
971.000      4.58547e-04      9.91808e-01 
974.000      4.72712e-04      9.91555e-01 
977.000      4.92728e-04      9.91197e-01 
980.000      5.19716e-04      9.90715e-01 
983.000      5.55020e-04      9.90084e-01 
986.000      6.00437e-04      9.89273e-01 
989.000      6.58438e-04      9.88237e-01 
992.000      7.32380e-04      9.86916e-01 
995.000      8.26762e-04      9.85230e-01 
998.000      9.47444e-04      9.83074e-01 
1001.000      1.10165e-03      9.80319e-01 
1004.000      1.29726e-03      9.76824e-01 
1007.000      1.54025e-03      9.72483e-01 
1010.000      1.82834e-03      9.67336e-01 
1013.000      2.13924e-03      9.61782e-01 
1016.000      2.41803e-03      9.56802e-01 
1019.000      2.58263e-03      9.53861e-01 
1022.000      2.56787e-03      9.54125e-01 
1025.000      2.37875e-03      9.57503e-01 
1028.000      2.08589e-03      9.62735e-01 
1031.000      1.76956e-03      9.68387e-01 
1034.000      1.48030e-03      9.73554e-01 
1037.000      1.23710e-03      9.77899e-01 
1040.000      1.04067e-03      9.81408e-01 
1043.000      8.84504e-04      9.84198e-01 
1046.000      7.60676e-04      9.86410e-01 
1049.000      6.62043e-04      9.88172e-01 
1052.000      5.82838e-04      9.89588e-01 
1055.000      5.18608e-04      9.90735e-01 
1058.000      4.65978e-04      9.91675e-01 
1061.000      4.22405e-04      9.92454e-01 
1064.000      3.85965e-04      9.93105e-01 
1067.000      3.55200e-04      9.93654e-01 
1070.000      3.28991e-04      9.94123e-01 
1073.000      3.06475e-04      9.94525e-01 
1076.000      2.86979e-04      9.94873e-01 
1079.000      2.69975e-04      9.95177e-01 
1082.000      2.55044e-04      9.95444e-01 
1085.000      2.41849e-04      9.95679e-01 
1088.000      2.30121e-04      9.95889e-01 
1091.000      2.19639e-04      9.96076e-01 
1094.000      2.10224e-04      9.96244e-01 
1097.000      2.01726e-04      9.96396e-01 
1100.000      1.94024e-04      9.96534e-01 
1103.000      1.87014e-04      9.96659e-01 
1106.000      1.80609e-04      9.96773e-01 
1109.000      1.74736e-04      9.96878e-01 
1112.000      1.69334e-04      9.96975e-01 
1115.000      1.64350e-04      9.97064e-01 
1118.000      1.59738e-04      9.97146e-01 
1121.000      1.55458e-04      9.97223e-01 
1124.000      1.51478e-04      9.97294e-01 
1127.000      1.47767e-04      9.97360e-01 
1130.000      1.44300e-04      9.97422e-01 
1133.000      1.41055e-04      9.97480e-01 
1136.000      1.38011e-04      9.97534e-01 
1139.000      1.35152e-04      9.97585e-01 
1142.000      1.32463e-04      9.97634e-01 
1145.000      1.29928e-04      9.97679e-01 
1148.000      1.27537e-04      9.97722e-01 
1151.000      1.25278e-04      9.97762e-01 
1154.000      1.23143e-04      9.97800e-01 
1157.000      1.21121e-04      9.97836e-01 
1160.000      1.19206e-04      9.97870e-01 
1163.000      1.17391e-04      9.97903e-01 
1166.000      1.15669e-04      9.97934e-01 
1169.000      1.14034e-04      9.97963e-01 
1172.000      1.12482e-04      9.97990e-01 
1175.000      1.11007e-04      9.98017e-01 
1178.000      1.09606e-04      9.98042e-01 
1181.000      1.08275e-04      9.98066e-01 
1184.000      1.07010e-04      9.98088e-01 
1187.000      1.05808e-04      9.98110e-01 
1190.000      1.04666e-04      9.98130e-01 
1193.000      1.03582e-04      9.98149e-01 
1196.000      1.02553e-04      9.98168e-01 
1199.000      1.01578e-04      9.98185e-01 
1202.000      1.00653e-04      9.98202e-01 
1205.000      9.97776e-05      9.98217e-01 
1208.000      9.89500e-05      9.98232e-01 
1211.000      9.81687e-05      9.98246e-01 
1214.000      9.74323e-05      9.98259e-01 
1217.000      9.67397e-05      9.98272e-01 
1220.000      9.60899e-05      9.98283e-01 
1223.000      9.54819e-05      9.98294e-01 
1226.000      9.49149e-05      9.98304e-01 
1229.000      9.43881e-05      9.98314e-01 
1232.000      9.39011e-05      9.98322e-01 
1235.000      9.34533e-05      9.98330e-01 
1238.000      9.30442e-05      9.98338e-01 
1241.000      9.26736e-05      9.98344e-01 
1244.000      9.23412e-05      9.98350e-01 
1247.000      9.20469e-05      9.98356e-01 
1250.000      9.17907e-05      9.98360e-01 
1253.000      9.15726e-05      9.98364e-01 
1256.000      9.13926e-05      9.98367e-01 
1259.000      9.12511e-05      9.98370e-01 
1262.000      9.11483e-05      9.98372e-01 
1265.000      9.10846e-05      9.98373e-01 
1268.000      9.10606e-05      9.98373e-01 
1271.000      9.10767e-05      9.98373e-01 
1274.000      9.11336e-05      9.98372e-01 
1277.000      9.12322e-05      9.98370e-01 
1280.000      9.13734e-05      9.98368e-01 
1283.000      9.15580e-05      9.98364e-01 
1286.000      9.17873e-05      9.98360e-01 
1289.000      9.20625e-05      9.98355e-01 
1292.000      9.23850e-05      9.98350e-01 
1295.000      9.27562e-05      9.98343e-01 
1298.000      9.31779e-05      9.98335e-01 
1301.000      9.36519e-05      9.98327e-01 
1304.000      9.41801e-05      9.98317e-01 
1307.000      9.47648e-05      9.98307e-01 
1310.000      9.54083e-05      9.98296e-01 
1313.000      9.61133e-05      9.98283e-01 
1316.000      9.68825e-05      9.98269e-01 
1319.000      9.77191e-05      9.98254e-01 
1322.000      9.86265e-05      9.98238e-01 
1325.000      9.96082e-05      9.98220e-01 
1328.000      1.00668e-04      9.98202e-01 
1331.000      1.01811e-04      9.98181e-01 
1334.000      1.03042e-04      9.98159e-01 
1337.000      1.04366e-04      9.98135e-01 
1340.000      1.05788e-04      9.98110e-01 
1343.000      1.07314e-04      9.98083e-01 
1346.000      1.08953e-04      9.98054e-01 
1349.000      1.10710e-04      9.98022e-01 
1352.000      1.12595e-04      9.97988e-01 
1355.000      1.14617e-04      9.97952e-01 
1358.000      1.16785e-04      9.97914e-01 
1361.000      1.19111e-04      9.97872e-01 
1364.000      1.21606e-04      9.97827e-01 
1367.000      1.24285e-04      9.97780e-01 
1370.000      1.27162e-04      9.97728e-01 
1373.000      1.30254e-04      9.97673e-01 
1376.000      1.33580e-04      9.97614e-01 
1379.000      1.37161e-04      9.97550e-01 
1382.000      1.41018e-04      9.97481e-01 
1385.000      1.45180e-04      9.97406e-01 
1388.000      1.49675e-04      9.97326e-01 
1391.000      1.54535e-04      9.97239e-01 
1394.000      1.59799e-04      9.97145e-01 
1397.000      1.65508e-04      9.97043e-01 
1400.000      1.71711e-04      9.96932e-01 
1403.000      1.78464e-04      9.96812e-01 
1406.000      1.85827e-04      9.96680e-01 
1409.000      1.93875e-04      9.96536e-01 
1412.000      2.02690e-04      9.96379e-01 
1415.000      2.12370e-04      9.96206e-01 
1418.000      2.23026e-04      9.96016e-01 
1421.000      2.34789e-04      9.95805e-01 
1424.000      2.47815e-04      9.95573e-01 
1427.000      2.62284e-04      9.95314e-01 
1430.000      2.78412e-04      9.95026e-01 
1433.000      2.96457e-04      9.94704e-01 
1436.000      3.16725e-04      9.94342e-01 
1439.000      3.39590e-04      9.93933e-01 
1442.000      3.65501e-04      9.93470e-01 
1445.000      3.95013e-04      9.92943e-01 
1448.000      4.28805e-04      9.92339e-01 
1451.000      4.67722e-04      9.91644e-01 
1454.000      5.12822e-04      9.90838e-01 
1457.000      5.65440e-04      9.89898e-01 
1460.000      6.27277e-04      9.88794e-01 
1463.000      7.00516e-04      9.87485e-01 
1466.000      7.87990e-04      9.85922e-01 
1469.000      8.93404e-04      9.84039e-01 
1472.000      1.02163e-03      9.81748e-01 
1475.000      1.17914e-03      9.78934e-01 
1478.000      1.37450e-03      9.75444e-01 
1481.000      1.61901e-03      9.71076e-01 
1484.000      1.92728e-03      9.65569e-01 
1487.000      2.31726e-03      9.58602e-01 
1490.000      2.80864e-03      9.49823e-01 
1493.000      3.41675e-03      9.38959e-01 
1496.000      4.13725e-03      9.26087e-01 
1499.000      4.91750e-03      9.12148e-01 
1502.000      5.62464e-03      8.99515e-01 
1505.000      6.05622e-03      8.91805e-01 
1508.000      6.04598e-03      8.91988e-01 
1511.000      5.59851e-03      8.99982e-01 
1514.000      4.88508e-03      9.12727e-01 
1517.000      4.10652e-03      9.26636e-01 
1520.000      3.39168e-03      9.39407e-01 
1523.000      2.79022e-03      9.50152e-01 
1526.000      2.30506e-03      9.58820e-01 
1529.000      1.92045e-03      9.65691e-01 
1532.000      1.61670e-03      9.71117e-01 
1535.000      1.37598e-03      9.75418e-01 
1538.000      1.18386e-03      9.78850e-01 
1541.000      1.02916e-03      9.81614e-01 
1544.000      9.03435e-04      9.83860e-01 
1547.000      8.00310e-04      9.85702e-01 
1550.000      7.14969e-04      9.87227e-01 
1553.000      6.43758e-04      9.88499e-01 
1556.000      5.83883e-04      9.89569e-01 
1559.000      5.33187e-04      9.90475e-01 
1562.000      4.89995e-04      9.91246e-01 
1565.000      4.52990e-04      9.91907e-01 
1568.000      4.21129e-04      9.92476e-01 
1571.000      3.93583e-04      9.92969e-01 
1574.000      3.69682e-04      9.93396e-01 
